Probe Results,,,,,,,,,,,
Time (ss.tt),Distance (cm),#1 (C),#2 (C),#3 (C),#4 (C),#5 (C),#6 (C),#7 (C),#8 (C),#9 (C),#10 (C)
0,0,21.6,21.6,21.6,21.6,21.6,21.6,21.6,21.6,21.6,21.6
0.4,0.6,21.6,21.6,21.6,21.6,21.6,21.6,21.6,21.6,21.6,21.6
0.8,1.3,21.6,21.6,21.6,21.6,21.6,21.6,21.6,21.6,21.6,21.6
1.2,1.9,21.6,21.6,21.6,21.5,21.6,21.6,21.6,21.6,21.6,21.6
1.6,2.5,21.6,21.6,21.6,21.5,21.6,21.6,21.6,21.6,21.6,21.6
2,3.2,21.6,21.6,21.6,21.6,21.6,21.6,21.6,21.6,21.6,21.6
2.4,3.8,21.6,21.6,21.6,21.5,21.6,21.6,21.6,21.6,21.6,21.5
2.8,4.4,21.6,21.6,21.6,21.6,21.6,21.6,21.6,21.6,21.6,21.6
3.2,5.1,21.6,21.6,21.6,21.6,21.6,21.6,21.6,21.6,21.6,21.6
3.6,5.7,21.6,21.6,21.6,21.6,21.6,21.6,21.6,21.6,21.6,21.6
4,6.3,21.6,21.6,21.6,21.6,21.6,21.6,21.6,21.6,21.6,21.6
4.4,7,21.6,21.6,21.6,21.6,21.6,21.6,21.6,21.6,21.6,21.6
4.8,7.6,21.6,21.6,21.6,21.6,21.6,21.6,21.6,21.6,21.6,21.6
5.2,8.2,21.6,21.6,21.6,21.6,21.6,21.6,21.6,21.6,21.6,21.6
5.6,8.9,21.6,21.6,21.6,21.6,21.6,21.6,21.6,21.6,21.6,21.6
6,9.5,21.6,21.6,21.6,21.6,21.6,21.6,21.6,21.6,21.6,21.6
6.4,10.1,21.6,21.6,21.6,21.6,21.6,21.6,21.6,21.6,21.6,21.6
6.8,10.8,21.6,21.6,21.6,21.6,21.6,21.6,21.6,21.6,21.6,21.6
7.2,11.4,21.6,21.6,21.6,21.6,21.6,21.6,21.6,21.6,21.6,21.6
7.6,12,21.6,21.6,21.6,21.6,21.6,21.6,21.6,21.6,21.6,21.6
8,12.7,21.6,21.6,21.6,21.6,21.6,21.6,21.6,21.6,21.6,21.6
8.4,13.3,21.6,21.6,21.6,21.6,21.6,21.6,21.6,21.6,21.6,21.6
8.8,13.9,21.6,21.6,21.6,21.6,21.6,21.6,21.6,21.6,21.6,21.6
9.2,14.6,21.6,21.6,21.6,21.6,21.6,21.6,21.6,21.6,21.6,21.6
9.6,15.2,21.6,21.6,21.6,21.6,21.6,21.6,21.6,21.6,21.6,21.6
10,15.8,21.6,21.6,21.6,21.6,21.6,21.6,21.6,21.6,21.6,21.6
10.4,16.5,21.6,21.6,21.6,21.6,21.6,21.6,21.6,21.6,21.6,21.6
10.8,17.1,21.6,21.6,21.6,21.6,21.6,21.6,21.6,21.6,21.6,21.6
11.2,17.7,21.6,21.6,21.6,21.6,21.6,21.6,21.6,21.6,21.6,21.6
11.6,18.4,21.6,21.6,21.6,21.6,21.6,21.6,21.6,21.6,21.6,21.6
12,19,21.6,21.6,21.6,21.6,21.6,21.6,21.6,21.6,21.6,21.6
12.4,19.6,21.6,21.6,21.6,21.6,21.6,21.6,21.6,21.6,21.6,21.6
12.8,20.3,21.6,21.6,21.6,21.6,21.6,21.6,21.6,21.6,21.6,21.6
13.2,20.9,21.6,21.6,21.6,21.6,21.6,21.6,21.6,21.6,21.6,21.6
13.6,21.5,21.6,21.6,21.6,21.6,21.6,21.6,21.6,21.6,21.6,21.6
14,22.2,21.6,21.6,21.6,21.6,21.6,21.6,21.6,21.6,21.6,21.6
14.4,22.8,21.6,21.6,21.6,21.6,21.6,21.6,21.6,21.6,21.6,21.6
14.8,23.4,21.6,21.6,21.6,21.6,21.6,21.6,21.6,21.6,21.6,21.6
15.2,24.1,21.6,21.6,21.6,21.6,21.6,21.6,21.6,21.6,21.6,21.6
15.6,24.7,21.6,21.6,21.6,21.6,21.6,21.7,21.6,21.6,21.6,21.6
16,25.3,21.6,21.6,21.6,21.6,21.6,21.6,21.6,21.6,21.6,21.6
16.4,26,21.6,21.6,21.6,21.6,21.6,21.6,21.6,21.6,21.6,21.6
16.8,26.6,21.6,21.6,21.6,21.6,21.6,21.6,21.6,21.6,21.6,21.6
17.2,27.2,21.6,21.6,21.6,21.6,21.6,21.6,21.6,21.6,21.6,21.6
17.6,27.9,21.6,21.6,21.6,21.6,21.6,21.6,21.6,21.6,21.6,21.6
18,28.5,21.6,21.6,21.6,21.6,21.6,21.6,21.6,21.6,21.6,21.6
18.4,29.1,21.6,21.6,21.6,21.6,21.6,21.6,21.6,21.6,21.6,21.6
18.8,29.8,21.6,21.6,21.6,21.6,21.6,21.6,21.6,21.6,21.6,21.6
19.2,30.4,21.6,21.6,21.6,21.6,21.7,21.6,21.6,21.6,21.6,21.6
19.6,31,21.6,21.6,21.7,21.6,21.8,21.6,21.6,21.6,21.6,21.6
20,31.7,21.6,21.6,21.7,21.6,21.8,21.6,21.6,21.6,21.6,21.6
20.4,32.3,21.6,21.6,21.7,21.6,21.8,21.6,21.6,21.6,21.6,21.6
20.8,32.9,21.6,21.6,21.7,21.6,21.8,21.6,21.6,21.6,21.6,21.6
21.2,33.6,21.6,21.6,21.7,21.6,21.8,21.6,21.6,21.6,21.6,21.7
21.6,34.2,21.6,21.6,21.7,21.6,21.8,21.6,21.6,21.6,21.6,21.6
22,34.8,21.6,21.6,21.7,21.6,21.8,21.6,21.6,21.6,21.6,21.6
22.4,35.5,21.6,21.6,21.7,21.6,21.9,21.6,21.6,21.6,21.6,21.6
22.8,36.1,21.6,21.6,21.8,21.7,22.1,21.7,21.7,21.7,21.7,21.8
23.2,36.7,21.6,21.6,21.7,21.6,22,21.6,21.6,21.6,21.6,21.6
23.6,37.4,21.6,21.6,21.8,21.7,22.1,21.7,21.7,21.7,21.7,21.8
24,38,21.6,21.6,21.8,21.8,22.1,21.7,21.7,21.7,21.7,21.8
24.4,38.6,21.6,21.6,21.8,21.8,22.1,21.7,21.7,21.7,21.8,21.8
24.8,39.3,21.6,21.6,21.8,21.8,22.1,21.7,21.7,21.7,21.7,21.8
25.2,39.9,21.6,21.6,21.8,21.8,22,21.7,21.7,21.7,21.8,21.8
25.6,40.5,21.6,21.6,21.8,21.8,22,21.7,21.7,21.7,21.8,21.8
26,41.2,21.6,21.6,21.8,21.8,22,21.7,21.7,21.7,21.7,21.8
26.4,41.8,21.6,21.6,21.8,21.8,22,21.7,21.7,21.7,21.7,21.9
26.8,42.4,21.6,21.6,21.8,21.8,21.9,21.7,21.7,21.7,21.7,21.8
27.2,43.1,21.6,21.6,21.8,21.8,21.9,21.7,21.7,21.7,21.7,21.8
27.6,43.7,21.6,21.6,21.8,21.8,21.9,21.7,21.7,21.7,21.7,21.9
28,44.3,21.6,21.6,21.8,21.8,21.9,21.7,21.7,21.7,21.7,21.8
28.4,45,21.6,21.6,21.8,21.8,22,21.8,21.7,21.7,21.7,21.9
28.8,45.6,21.6,21.6,21.8,21.8,21.9,21.7,21.7,21.7,21.7,21.9
29.2,46.2,21.6,21.6,21.8,21.8,22,21.7,21.7,21.7,21.7,21.9
29.6,46.9,21.6,21.6,21.8,21.8,22,21.8,21.7,21.7,21.7,21.9
30,47.5,21.6,21.6,21.8,21.8,22,21.7,21.7,21.7,21.7,21.9
30.4,48.1,21.6,21.6,21.8,21.8,22,21.7,21.7,21.7,21.7,21.9
30.8,48.8,21.6,21.6,21.9,21.8,22.1,21.7,21.7,21.7,21.7,21.9
31.2,49.4,21.6,21.6,21.9,21.8,22.1,21.8,21.7,21.7,21.7,21.9
31.6,50,21.6,21.6,21.9,21.8,22.1,21.8,21.7,21.7,21.7,21.9
32,50.7,21.6,21.6,21.9,21.8,22.1,21.8,21.7,21.7,21.7,21.9
32.4,51.3,21.6,21.6,21.9,21.8,22.1,21.8,21.7,21.7,21.7,22
32.8,51.9,21.6,21.6,21.9,21.8,22.1,21.8,21.7,21.7,21.7,22
33.2,52.6,21.6,21.6,21.9,21.8,22.1,21.8,21.7,21.7,21.7,22
33.6,53.2,21.6,21.6,21.9,21.8,22.1,21.8,21.7,21.7,21.7,22.1
34,53.8,21.6,21.7,22,21.8,22.1,21.8,21.7,21.7,21.7,22.1
34.4,54.5,21.6,21.7,22,21.9,22.1,21.8,21.7,21.7,21.8,22.1
34.8,55.1,21.6,21.7,22,21.9,22.2,21.8,21.7,21.7,21.8,22.1
35.2,55.7,21.6,21.8,22.1,21.9,22.2,21.8,21.7,21.8,21.8,22.1
35.6,56.4,21.6,21.8,22.1,21.9,22.3,21.8,21.7,21.7,21.8,22.2
36,57,21.6,21.8,22.1,21.9,22.3,21.8,21.7,21.7,21.8,22.2
36.4,57.6,21.6,21.8,22.1,21.9,22.3,21.8,21.7,21.8,21.8,22.2
36.8,58.3,21.7,21.8,22.2,22,22.4,21.8,21.8,21.8,21.8,22.3
37.2,58.9,21.7,21.8,22.3,22.1,22.6,21.8,21.8,21.8,21.8,22.3
37.6,59.5,21.7,21.8,22.3,22.1,22.6,21.8,21.8,21.8,21.8,22.3
38,60.2,21.8,21.9,22.4,22.1,22.6,21.8,21.8,21.8,21.8,22.4
38.4,60.8,21.8,21.9,22.5,22.1,22.6,21.8,21.8,21.8,21.8,22.4
38.8,61.4,21.8,21.9,22.6,22.2,22.8,21.8,21.8,21.8,21.8,22.5
39.2,62.1,21.8,21.9,22.8,22.2,22.8,21.8,21.8,21.8,21.8,22.6
39.6,62.7,21.8,21.9,23.2,22.2,23,21.8,21.8,21.8,21.8,22.8
40,63.3,21.8,21.9,23.6,22.3,23.6,21.8,21.8,21.8,21.9,22.9
40.4,64,21.8,21.9,24,22.3,24.2,21.8,21.8,21.8,21.9,23
40.8,64.6,21.8,22,24.5,22.5,25.4,21.8,21.8,21.8,21.9,23.2
41.2,65.2,21.8,22,25,22.7,26.6,21.8,21.8,21.8,21.9,23.4
41.6,65.9,21.8,22,25.4,22.8,27.8,21.8,21.8,21.8,21.9,23.8
42,66.5,21.8,22.1,26.1,23.1,28.9,21.8,21.8,21.8,21.9,24.2
42.4,67.1,21.8,22.1,26.8,23.4,29.6,21.8,21.8,21.8,21.9,24.6
42.8,67.8,21.8,22.1,27.7,23.9,30.6,21.8,21.8,21.8,21.9,25
43.2,68.4,21.8,22.1,28.5,24.4,31.7,21.8,21.8,21.8,21.9,25.4
43.6,69,21.8,22.1,29.1,24.9,32.8,21.8,21.8,21.9,22,25.8
44,69.7,21.8,22.2,29.9,25.4,33.6,21.9,21.8,21.9,22,26.1
44.4,70.3,21.9,22.3,30.6,26.1,34.6,21.9,21.9,21.9,22,26.4
44.8,70.9,21.9,22.3,31.3,26.7,35.3,21.9,21.9,21.9,22,26.8
45.2,71.6,21.9,22.3,31.9,27.3,35.9,21.9,21.9,21.9,22,27.3
45.6,72.2,21.9,22.3,32.4,27.9,36.4,21.9,21.9,21.9,22,27.8
46,72.8,21.9,22.3,32.9,28.5,36.7,21.9,21.9,21.9,22.1,28.4
46.4,73.5,21.9,22.3,33.4,29.1,36.9,21.9,21.9,21.9,22.1,29.1
46.8,74.1,22,22.4,33.8,29.6,36.9,21.9,21.9,21.9,22.1,29.9
47.2,74.7,22,22.6,34.3,30.1,37.1,21.9,21.9,22,22.2,30.7
47.6,75.4,22,22.6,34.6,30.6,37.5,22,21.9,22,22.2,31.3
48,76,22.1,22.8,35,31.1,37.9,22,21.9,22,22.2,31.9
48.4,76.6,22.1,22.8,35.4,31.5,38.1,22,22,22,22.3,32.4
48.8,77.3,22.3,23,35.8,32,38.2,22.1,22.1,22.1,22.4,33
49.2,77.9,22.3,23,36,32.5,38.2,22.1,22.1,22.1,22.4,33.6
49.6,78.5,22.3,23.1,36.5,32.9,38.3,22.1,22.1,22.1,22.3,33.9
50,79.2,22.4,23.3,36.8,33.3,38.6,22.1,22.1,22.2,22.4,34.5
50.4,79.8,22.5,23.3,37.1,33.6,38.9,22.1,22.1,22.2,22.4,35
50.8,80.4,22.6,23.3,37.5,33.9,38.9,22.1,22.1,22.2,22.4,35.4
51.2,81.1,22.6,23.3,37.9,34.3,38.9,22.2,22.1,22.2,22.4,35.8
51.6,81.7,22.7,23.2,38.3,34.6,39,22.2,22.2,22.2,22.4,36.1
52,82.3,22.8,23.3,38.6,34.9,39.2,22.3,22.2,22.3,22.4,36.6
52.4,83,22.8,23.2,38.8,35.3,39.2,22.3,22.2,22.3,22.4,36.9
52.8,83.6,22.9,23.2,39,35.6,39.1,22.3,22.2,22.3,22.5,37.3
53.2,84.2,23,23.2,39.3,35.9,38.9,22.3,22.3,22.3,22.5,37.8
53.6,84.9,23.1,23.3,39.6,36.3,39,22.3,22.3,22.3,22.6,38.1
54,85.5,23.3,23.3,39.8,36.6,39.2,22.4,22.3,22.3,22.6,38.4
54.4,86.1,23.4,23.3,39.9,37,39.5,22.4,22.3,22.4,22.6,38.8
54.8,86.8,23.6,23.4,40.2,37.4,39.7,22.4,22.3,22.4,22.7,39.1
55.2,87.4,23.8,23.4,40.5,37.7,39.6,22.6,22.4,22.4,22.8,39.6
55.6,88,23.9,23.5,40.9,38,39.7,22.7,22.4,22.5,22.8,39.8
56,88.7,23.9,23.5,41.1,38.3,39.8,22.9,22.5,22.5,22.9,40.1
56.4,89.3,24.1,23.6,41.3,38.6,39.9,23.2,22.5,22.6,22.9,40.4
56.8,89.9,24.1,23.6,41.5,38.9,39.9,23.6,22.6,22.6,22.9,40.8
57.2,90.6,24.2,23.7,41.7,39.3,39.9,23.9,22.6,22.6,22.9,41
57.6,91.2,24.3,23.8,41.8,39.5,39.8,24.4,22.6,22.7,22.9,41.3
58,91.8,24.4,23.9,41.8,39.8,39.8,24.9,22.7,22.8,23,41.5
58.4,92.5,24.4,24,41.8,40.1,40.1,25.2,22.8,22.8,23.2,41.8
58.8,93.1,24.5,24.1,41.9,40.4,40.2,25.4,22.8,22.9,23.3,42
59.2,93.7,24.5,24.1,41.9,40.8,40.3,25.7,22.9,22.9,23.3,42.3
59.6,94.4,24.6,24.2,41.9,41.1,40.8,26.1,23,23,23.4,42.6
60,95,24.7,24.3,42.1,41.3,41,26.5,23.1,23.1,23.6,42.9
60.4,95.6,24.8,24.4,42.3,41.4,41,26.8,23.1,23.2,23.8,43.2
60.8,96.3,24.8,24.4,42.4,41.6,40.9,27,23.2,23.3,23.9,43.4
61.2,96.9,24.9,24.5,42.3,41.8,41.1,27.1,23.3,23.4,24,43.6
61.6,97.5,25,24.6,42.5,42,41.4,27.2,23.4,23.6,24.2,43.9
62,98.2,25.1,24.6,42.4,42.2,41.4,27.3,23.6,23.7,24.3,44.2
62.4,98.8,25.1,24.8,42.4,42.3,41.1,27.4,23.6,23.8,24.4,44.4
62.8,99.4,25.3,24.9,42.3,42.4,41.1,27.3,23.8,23.9,24.6,44.6
63.2,100.1,25.3,25.1,42.3,42.6,40.6,27.3,23.8,24,24.8,44.9
63.6,100.7,25.4,25.1,41.9,42.8,40.6,27.4,23.9,24.1,24.9,45.1
64,101.3,25.5,25.2,41.8,42.9,41,27.5,24,24.3,25.1,45.4
64.4,102,25.6,25.3,41.6,43.1,41.3,27.8,24.1,24.3,25.2,45.8
64.8,102.6,25.7,25.4,41.5,43.3,41.3,28.1,24.3,24.4,25.3,46.2
65.2,103.2,25.8,25.5,41.6,43.4,41.3,28.4,24.4,24.6,25.4,46.4
65.6,103.9,26,25.6,41.4,43.4,41.1,28.6,24.4,24.7,25.4,46.6
66,104.5,26.1,25.7,41.3,43.6,41,29,24.6,24.8,25.4,46.8
66.4,105.1,26.2,25.9,41.3,43.6,40.9,29.3,24.7,24.9,25.6,46.9
66.8,105.8,26.3,25.9,41.2,43.6,41.1,29.6,24.8,24.9,25.6,47.1
67.2,106.4,26.4,26.1,41,43.8,41.3,29.8,24.9,25.1,25.7,47.4
67.6,107,26.5,26.1,41,43.9,41.7,29.8,24.9,25.1,25.8,47.8
68,107.7,26.8,26.3,41.1,44.1,42.1,29.9,25.1,25.3,25.9,48.1
68.4,108.3,26.9,26.3,41.3,44.1,42.4,29.8,25.2,25.4,26,48.3
68.8,108.9,26.9,26.5,41.3,44.2,42.9,29.8,25.3,25.5,26.1,48.6
69.2,109.6,27.1,26.6,41.2,44.4,42.9,29.8,25.4,25.6,26.1,48.7
69.6,110.2,27.2,26.6,41.3,44.6,43.3,29.8,25.5,25.6,26.2,49
70,110.8,27.3,26.8,41.1,44.7,43.5,29.8,25.6,25.7,26.3,49.5
70.4,111.5,27.4,26.9,41.1,44.8,44.1,29.8,25.6,25.8,26.4,49.8
70.8,112.1,27.5,27.1,41.2,45,44.9,29.8,25.8,25.9,26.4,50.2
71.2,112.7,27.6,27.3,41.4,45.2,46.1,29.7,25.8,26.1,26.5,50.6
71.6,113.4,27.8,27.4,41.6,45.4,47.3,29.8,25.9,26.1,26.6,50.9
72,114,27.9,27.5,41.6,45.6,48.3,29.8,26,26.2,26.6,51.3
72.4,114.6,28.1,27.6,41.7,46,48.9,29.8,26.1,26.3,26.8,51.8
72.8,115.3,28.3,27.8,41.9,46.2,49.5,29.9,26.2,26.4,26.8,52
73.2,115.9,28.5,27.9,42.1,46.6,49.9,29.9,26.3,26.5,27,52.3
73.6,116.5,28.6,28.1,42.3,46.7,50.4,30.1,26.4,26.6,27.1,52.6
74,117.2,28.8,28.3,42.9,46.8,50.4,30.4,26.5,26.7,27.3,53.1
74.4,117.8,28.9,28.4,43,46.8,50.3,30.8,26.6,26.8,27.3,53.3
74.8,118.4,29,28.5,43.5,47.3,50.4,30.9,26.7,26.9,27.4,53.4
75.2,119.1,29.1,28.6,43.9,47.7,51,30.9,26.8,26.9,27.5,53.6
75.6,119.7,29.1,28.8,44.6,48,52.5,30.9,26.9,27.1,27.6,53.9
76,120.3,29.2,28.9,45.2,48.3,53.5,31,27,27.2,27.8,54.3
76.4,121,29.2,29.1,45.8,48.6,54,31.1,27.1,27.3,27.9,54.8
76.8,121.6,29.3,29.3,46.6,48.7,53.9,31.5,27.3,27.4,28,55.1
77.2,122.2,29.3,29.6,47.1,48.7,54.4,31.8,27.3,27.5,28.2,55.6
77.6,122.9,29.4,29.9,47.7,48.8,56,32.3,27.5,27.6,28.4,57.4
78,123.5,29.4,30.3,49.4,49.2,58.1,32.4,27.6,27.8,28.5,61.1
78.4,124.1,29.6,30.6,51.9,49.6,59.9,32.4,27.8,27.9,28.6,64.8
78.8,124.8,29.8,30.9,54,49.9,61.2,32.2,27.9,28.1,28.8,66.6
79.2,125.4,29.9,31.1,55,50.3,62.3,32.1,28.1,28.1,28.9,67.3
79.6,126,30.1,31.4,56.3,50.8,63.2,32,28.2,28.3,29.1,67.6
80,126.7,30.3,31.6,58.6,51.8,65.1,31.9,28.4,28.4,29.2,68
80.4,127.3,30.4,31.8,62.3,53.1,67.9,31.8,28.5,28.6,29.3,69.4
80.8,127.9,30.7,32.1,66.1,54.5,70.6,31.8,28.6,28.7,29.5,71.1
81.2,128.6,30.9,32.4,69,55.2,72.5,31.7,28.7,28.8,29.7,72.6
81.6,129.2,31.1,32.6,70.8,55.9,73.4,31.9,28.8,28.9,29.8,73.6
82,129.8,31.3,32.7,71.5,57.1,73.9,31.9,28.9,29.1,30.1,74.1
82.4,130.5,31.4,32.9,71.6,58.6,74.5,32.2,29.1,29.2,30.3,74.4
82.8,131.1,31.6,33.3,71.8,60.3,75.6,32.4,29.3,29.3,30.4,75.8
83.2,131.7,31.8,33.6,72.4,61.8,77.2,32.8,29.4,29.5,30.5,78.3
83.6,132.4,32.1,33.9,73.4,62.9,78.4,32.9,29.6,29.6,30.7,80.6
84,133,32.4,34.3,74.3,63.9,79.3,33.2,29.8,29.8,30.9,81.8
84.4,133.6,32.8,34.6,74.7,64.7,79.9,33.6,29.9,29.9,31.1,82.2
84.8,134.3,33.2,35.2,74.8,65.7,80.2,33.8,30.1,30.1,31.3,82.2
85.2,134.9,33.6,35.8,75.9,67.9,80.9,33.8,30.3,30.3,31.5,82.3
85.6,135.5,34,36.4,78.6,69.9,83,34,30.4,30.4,31.7,83.3
86,136.2,34.6,37.1,81.4,71,85.1,34.1,30.6,30.6,32.1,84.7
86.4,136.8,35.3,38,83,71.9,86.1,34.4,30.9,30.9,32.4,85.8
86.8,137.4,36.1,38.9,83.5,72.8,86.6,34.6,31.1,31.1,32.6,86.3
87.2,138.1,37,40.1,83.4,73.7,86.6,35.1,31.3,31.3,32.9,86.6
87.6,138.7,38.1,41.5,83.2,75.3,86.3,35.3,31.5,31.5,33.1,86.7
88,139.3,39.4,43.4,84,76.8,86.4,35.6,31.8,31.8,33.6,86.8
88.4,140,40.9,45.3,84.9,78.1,87.1,36,32.1,32.1,33.9,86.9
88.8,140.6,42.9,46.6,85.6,78.9,87.5,36.3,32.4,32.4,34.3,87.1
89.2,141.2,44.8,47.6,86,79.6,87.7,36.6,32.6,32.6,34.7,87.2
89.6,141.9,46.2,47.8,86.2,80.3,87.7,37,32.9,32.9,35.1,87.6
90,142.5,47.1,47.5,86.3,82.1,87.4,37.4,33.2,33.3,35.6,88.1
90.4,143.1,47.6,47.3,87.4,84.1,87.1,38.1,33.6,33.6,36.1,89.1
90.8,143.8,47.9,47.6,89.4,85.3,87.3,39.1,33.9,34.1,36.8,90.3
91.2,144.4,48.5,47.9,91,85.9,87.8,40.3,34.4,34.6,37.4,91.7
91.6,145,49.7,48.3,92.1,86.4,88.4,41.8,34.9,35.1,38.3,92.6
92,145.7,50.9,48.8,92.3,87.2,88.7,43.4,35.5,35.8,39.4,92.9
92.4,146.3,51.8,49.2,92.1,88.1,88.9,45.7,36.3,36.6,40.9,93.1
92.8,146.9,52.3,49.8,92.8,89.2,89.7,48.9,37.2,37.8,42.9,93.4
93.2,147.6,52.7,51,94.5,89.8,90.9,51.4,38.2,39.1,45.4,94.9
93.6,148.2,53.4,52.6,96,90.2,91.9,52.9,39.1,40.4,46.9,96.9
94,148.8,54.3,54.3,96.7,90.5,92.4,53.6,40,41.3,47.7,98
94.4,149.5,55.3,56,96.8,91,92.9,53.8,40.8,42,47.7,98.3
94.8,150.1,56.2,56.8,96.6,91.9,93.1,54.9,41.4,42.6,47.8,98.5
95.2,150.7,56.7,57,96.3,93.4,93.3,57.3,42.2,43.3,48.3,98.6
95.6,151.4,57,57.1,95.9,94.8,93.2,59.8,43,44.2,49.3,98.8
96,152,57.4,57.1,95.3,95.6,93,61.1,43.8,45.1,50.3,98.9
96.4,152.6,58.2,57.2,94.5,95.9,92.8,61.3,44.6,46,50.8,98.9
96.8,153.3,59.3,57.6,93.6,96.3,92.4,61,45.4,46.7,51.3,99
97.2,153.9,60.6,58.2,92.8,96.6,92.1,60.8,46.3,47.3,51.8,99.1
97.6,154.5,61.5,58.6,92.2,96.8,91.8,61.1,47.1,48.2,52.6,99.1
98,155.2,62.2,59,91.8,97.1,91.6,62.1,48.2,49.2,54.3,99
98.4,155.8,62.6,59.6,91.3,97.3,91.4,62.9,49.1,50.4,56.1,98.9
98.8,156.4,63.3,60.5,91,97.5,91.3,63.3,50.1,51.4,56.8,99
99.2,157.1,64.1,61.6,90.8,97.6,91.3,63.4,50.9,52.2,57.4,99.1
99.6,157.7,65.1,62.8,91,97.8,92,63.8,51.6,52.8,57.8,99.6
100,158.3,65.8,63.2,92.3,97.9,93.4,65.3,52.3,53.5,58.1,101.6
100.4,159,66.3,63.6,94.1,97.9,95.4,67.9,53.1,54.2,58.9,104.6
100.8,159.6,66.5,64.4,96.1,98.1,97.1,70.4,53.9,55,60,106.9
101.2,160.2,66.9,65.6,97.8,98.3,98.4,72.1,54.8,56,60.9,108.3
101.6,160.9,67.3,66.9,98.9,98.9,99.4,72.4,55.6,56.8,61.4,108.6
102,161.5,67.8,67.9,99.8,100.3,100.4,72.1,56.3,57.5,61.8,108.6
102.4,162.1,68.1,68.7,100.8,102.3,102.4,71.4,56.9,58.1,62.3,108.8
102.8,162.8,68.4,68.9,103.2,103.6,105.2,70.9,57.8,58.8,62.9,109.3
103.2,163.4,68.8,69.2,105.6,104.4,107.1,70.5,58.5,59.6,64.4,110.1
103.6,164,69.4,69.4,107.1,104.9,108.3,70.1,59.3,60.5,66,110.4
104,164.7,70.3,69.9,107.9,105.4,108.8,69.9,59.9,61.3,66.9,110.6
104.4,165.3,71.3,70.3,107.8,106.3,109.1,70,60.6,62.1,67.6,110.5
104.8,165.9,72.3,70.8,107.7,107.5,109.4,70.6,61.2,62.6,67.8,110.9
105.2,166.6,72.9,71.1,108.3,108.6,110.7,72.1,61.8,63.2,67.8,112.5
105.6,167.2,73.4,71.5,109,109.3,111.9,74.6,62.5,63.8,68.2,114.4
106,167.8,73.6,71.9,109.8,109.8,112.8,76.8,63.2,64.5,69.1,115.8
106.4,168.5,73.7,72.3,110.1,110.1,113.4,77.9,63.9,65.3,69.9,116.4
106.8,169.1,73.8,72.6,110.2,110.5,113.6,78,64.7,65.9,70.4,116.4
107.2,169.7,73.9,72.8,110.3,111.5,113.8,78,65.3,66.6,70.9,116.4
107.6,170.4,73.9,73,111.1,112.6,114.4,78.6,65.9,67.2,71.3,116.9
108,171,74,73.1,113.3,113.6,115.9,79.8,66.6,67.9,71.5,117.6
108.4,171.6,74.2,73.4,115.3,113.9,117.2,81.1,67.4,68.7,72.5,118.5
108.8,172.3,74.4,73.6,116.5,114.3,117.8,81.8,68.2,69.6,73.5,118.9
109.2,172.9,74.6,73.9,116.9,114.8,118.2,82.2,68.9,70.3,74.4,119.1
109.6,173.5,74.9,74.4,116.8,115.8,118.6,82.3,69.7,70.9,75.1,119
110,174.2,75.5,75.3,116.4,116.9,118.9,82,70.3,71.4,75.7,119.2
110.4,174.8,76.3,76.1,116.6,117.8,119.4,81.6,70.8,72,76.1,120.1
110.8,175.4,77.4,77.6,117.1,118.3,119.8,81.3,71.3,72.4,76.3,121.7
111.2,176.1,78.8,78.9,117.6,118.6,120.1,80.9,71.6,72.8,76.4,122.9
111.6,176.7,80.3,79.9,117.8,118.9,120.1,80.9,72.1,73.1,76.5,123.1
112,177.3,81.6,81,117.8,119.4,120.4,80.8,72.4,73.4,76.5,123.1
112.4,178,82.7,81.4,118.3,120.6,121.2,81.1,72.8,73.6,76.6,123.3
112.8,178.6,83.4,81.7,119.9,121.6,122.7,81.5,73.1,73.9,76.7,123.7
113.2,179.2,83.9,82.5,121.8,122.1,123.9,82.3,73.5,74.3,77,124.5
113.6,179.9,84.9,83.6,123.1,122.3,124.5,82.9,73.9,74.7,77.4,125.2
114,180.5,86.2,84.4,123.4,122.7,124.5,83.8,74.4,75.1,78,125.4
114.4,181.1,87.4,85.3,123.3,123.1,124.4,84.9,74.9,75.7,78.9,125.3
114.8,181.8,88.3,86.1,123.1,123.9,124.8,86.4,75.6,76.5,79.9,125.6
115.2,182.4,88.8,86.8,123.6,124.6,125.3,88.5,76.3,77.6,80.9,126.6
115.6,183,89.3,88.3,124.4,124.9,125.8,90.8,77.1,78.5,82.1,128.1
116,183.7,89.9,89.9,124.9,125.1,126.2,92.4,77.8,79.4,82.8,129
116.4,184.3,90.9,91.6,125.3,125.3,126.3,93.3,78.6,80.1,83.4,129.3
116.8,184.9,91.9,93,125.4,125.7,126.3,93.6,79.3,80.8,84.1,129.3
117.2,185.6,92.7,93.7,125.3,126.6,126.1,93.7,80,81.3,84.6,129.1
117.6,186.2,93.2,93.9,124.9,127.5,125.9,93.6,80.8,81.9,85,128.9
118,186.8,93.4,93.8,124.4,128.1,125.4,93.6,81.4,82.5,85.4,128.8
118.4,187.5,93.8,93.8,123.8,128.3,125,93.5,82.1,83,85.8,128.6
118.8,188.1,94.4,94,123.2,128.4,124.6,93.5,82.7,83.5,86.2,128.4
119.2,188.7,95.3,94.7,122.6,128.4,124.2,93.6,83.3,84,86.7,128.3
119.6,189.4,96.3,95.3,122,128.4,123.9,94.3,83.9,84.6,87.7,128.2
120,190,96.9,95.6,121.5,128.4,123.8,95.5,84.8,85.4,88.8,128.2
120.4,190.6,97.3,96.1,121.1,128.4,124.1,97.3,85.5,86.4,90.3,128.4
120.8,191.3,97.8,97.1,120.8,128.4,124.4,98.3,86.3,87.4,91.8,128.6
121.2,191.9,98.4,98.3,120.7,128.3,124.8,98.8,86.9,88.2,92.3,128.9
121.6,192.5,99,99.6,120.8,128.4,126,99.1,87.6,88.8,92.4,129.4
122,193.2,99.6,100.5,121.9,128.4,127.3,99.8,88.3,89.3,92.8,130.3
122.4,193.8,100.1,100.8,123.5,128.4,128.6,101.4,89,89.9,93.4,132.1
122.8,194.4,100.4,100.9,125.2,128.6,129.9,103.7,89.9,90.6,94.4,133.9
123.2,195.1,100.8,101.3,126.7,128.9,130.8,105.6,90.6,91.4,95.6,134.9
123.6,195.7,101.4,102,127.6,129.4,131.3,106.5,91.3,92.3,96.6,135.1
124,196.3,102.5,102.8,128.3,130.1,131.7,106.4,92,93,97.1,135.1
124.4,197,103.5,103.7,129,131.3,132.4,106,92.6,93.6,97.6,135.1
124.8,197.6,104.3,104.1,130.6,132.4,133.9,105.5,93.1,94.2,97.9,135.6
125.2,198.2,104.6,104.3,132.5,133.1,135.3,105.4,93.8,94.8,98.6,136.4
125.6,198.9,105,104.9,133.6,133.5,136,105.3,94.5,95.4,99.9,136.9
126,199.5,105.6,105.7,134.1,133.8,136.2,105.2,95.1,96.1,100.9,137.1
126.4,200.1,106.4,106.8,134.1,134.4,136.3,105.3,95.8,96.8,101.7,137.1
126.8,200.8,107.1,107.7,134.1,135.3,136.3,105.5,96.3,97.4,102.1,137.2
127.2,201.4,107.8,108.3,134.4,136,136.9,106.5,96.8,97.9,102.1,137.9
127.6,202,108.3,108.6,135,136.5,137.8,108.3,97.3,98.4,102.6,139.2
128,202.7,108.4,108.6,135.5,136.8,138.3,110.1,97.8,99,103.1,140.3
128.4,203.3,108.5,108.5,135.9,136.9,138.6,111.1,98.4,99.7,103.8,140.6
128.8,203.9,108.4,108.3,135.9,137.3,138.8,111.2,98.9,100.4,104.3,140.5
129.2,204.6,108.3,108.1,136.1,138,138.8,111.3,99.4,100.9,104.6,140.4
129.6,205.2,108.3,108.1,137,138.9,139.1,111.8,99.9,101.3,104.8,140.6
130,205.8,108.2,108.2,138.6,139.5,139.9,112.7,100.6,101.9,105.1,141.1
130.4,206.5,108.2,108.3,140,139.7,140.6,113.9,101.3,102.7,106,141.8
130.8,207.1,108.3,108.4,140.6,139.9,140.9,114.9,101.9,103.4,106.9,142.2
131.2,207.7,108.4,108.6,140.7,140.1,140.9,115.3,102.6,104.1,107.6,142.3
131.6,208.4,108.6,109.1,140.4,140.8,141,115.3,103.2,104.6,108.3,142.1
